%; Gorshelev 201709 ozone absorption cross-section
%; sigma=10^(-20)[a_o+a_1*t+a_2*t^2]
%; [sigma]=cm^2/molec.
%; [t]=deg. Celsius
%; column 1: vacuum wavelength [nm]
%; column 2: a_o
%; column 3: a_1
%; column 4: a_2
%; column 5: Delta a_o
%; column 6: Delta a_1
%; column 7: Delta a_2
   295.00   7.826600e+001   5.998167e-002  -6.432033e-005   6.265606e-001   3.402714e-002   5.120432e-004
   295.01   7.816866e+001   6.014013e-002  -6.915646e-005   6.240126e-001   3.388876e-002   5.099609e-004
   295.02   7.806907e+001   6.034823e-002  -7.317114e-005   6.210148e-001   3.372596e-002   5.075110e-004
   295.03   7.796662e+001   6.060468e-002  -7.643844e-005   6.175343e-001   3.353695e-002   5.046667e-004
   295.04   7.786168e+001   6.091206e-002  -7.890652e-005   6.135436e-001   3.332022e-002   5.014054e-004
   295.05   7.775451e+001   6.126741e-002  -8.057379e-005   6.091043e-001   3.307913e-002   4.977774e-004
   295.06   7.764448e+001   6.167268e-002  -8.152195e-005   6.041400e-001   3.280953e-002   4.937204e-004
   295.07   7.753191e+001   6.212755e-002  -8.165782e-005   5.987139e-001   3.251485e-002   4.892861e-004
   295.08   7.741750e+001   6.262907e-002  -8.144983e-005   5.926941e-001   3.218793e-002   4.843665e-004
   295.09   7.730009e+001   6.318917e-002  -8.026577e-005   5.862013e-001   3.183532e-002   4.790604e-004
   295.10   7.717991e+001   6.380697e-002  -7.792022e-005   5.793738e-001   3.146453e-002   4.734808e-004
   295.11   7.705714e+001   6.451018e-002  -7.379563e-005   5.713874e-001   3.103081e-002   4.669541e-004
   295.12   7.693110e+001   6.527100e-002  -6.833101e-005   5.633831e-001   3.059611e-002   4.604128e-004
   295.13   7.680208e+001   6.608370e-002  -6.154627e-005   5.555525e-001   3.017085e-002   4.540133e-004
   295.14   7.667020e+001   6.694293e-002  -5.350322e-005   5.480857e-001   2.976534e-002   4.479112e-004
   295.15   7.653583e+001   6.784348e-002  -4.421608e-005   5.411710e-001   2.938982e-002   4.422604e-004
   295.16   7.639826e+001   6.878382e-002  -3.370627e-005   5.348506e-001   2.904657e-002   4.370952e-004
   295.17   7.625796e+001   6.975609e-002  -2.201943e-005   5.292238e-001   2.874100e-002   4.324968e-004
   295.18   7.611548e+001   7.074972e-002  -9.267936e-006   5.243481e-001   2.847621e-002   4.285123e-004
   295.19   7.597007e+001   7.176351e-002   4.521439e-006   5.202143e-001   2.825171e-002   4.251340e-004
   295.20   7.582237e+001   7.278588e-002   1.910461e-005   5.168458e-001   2.806877e-002   4.223812e-004
   295.21   7.567310e+001   7.380424e-002   3.417400e-005   5.142421e-001   2.792737e-002   4.202533e-004
   295.22   7.552159e+001   7.481098e-002   4.941634e-005   5.124309e-001   2.782901e-002   4.187732e-004
   295.23   7.536865e+001   7.579664e-002   6.452876e-005   5.114175e-001   2.777397e-002   4.179450e-004
   295.24   7.521504e+001   7.674672e-002   7.910144e-005   5.112333e-001   2.776397e-002   4.177945e-004
   295.25   7.506007e+001   7.765423e-002   9.299521e-005   5.118783e-001   2.779900e-002   4.183215e-004
   295.26   7.490444e+001   7.851343e-002   1.061620e-004   5.133172e-001   2.787714e-002   4.194975e-004
   295.27   7.474891e+001   7.931106e-002   1.185690e-004   5.154632e-001   2.799369e-002   4.212513e-004
   295.28   7.459258e+001   8.004826e-002   1.305046e-004   5.181697e-001   2.814067e-002   4.234631e-004
   295.29   7.443616e+001   8.072057e-002   1.421890e-004   5.212963e-001   2.831047e-002   4.260182e-004
   295.30   7.428021e+001   8.132221e-002   1.538176e-004   5.246108e-001   2.849047e-002   4.287269e-004
   295.31   7.412399e+001   8.185473e-002   1.655820e-004   5.280003e-001   2.867455e-002   4.314969e-004
   295.32   7.396823e+001   8.231439e-002   1.774405e-004   5.314070e-001   2.885956e-002   4.342810e-004
   295.33   7.381360e+001   8.269568e-002   1.891604e-004   5.348086e-001   2.904429e-002   4.370608e-004
   295.34   7.365960e+001   8.300177e-002   2.004970e-004   5.383645e-001   2.923740e-002   4.399668e-004
   295.35   7.350700e+001   8.322785e-002   2.109712e-004   5.421575e-001   2.944340e-002   4.430666e-004
   295.36   7.335661e+001   8.337254e-002   2.201198e-004   5.462516e-001   2.966574e-002   4.464124e-004
   295.37   7.320779e+001   8.343750e-002   2.276161e-004   5.506666e-001   2.990551e-002   4.500205e-004
   295.38   7.306130e+001   8.342751e-002   2.332291e-004   5.553125e-001   3.015781e-002   4.538172e-004
   295.39   7.291725e+001   8.334862e-002   2.368810e-004   5.600692e-001   3.041614e-002   4.577045e-004
   295.40   7.277616e+001   8.321106e-002   2.387014e-004   5.647461e-001   3.067013e-002   4.615266e-004
   295.41   7.263721e+001   8.302318e-002   2.389130e-004   5.691998e-001   3.091200e-002   4.651663e-004
   295.42   7.250081e+001   8.279589e-002   2.377793e-004   5.732752e-001   3.113333e-002   4.684969e-004
   295.43   7.236736e+001   8.254617e-002   2.356807e-004   5.768086e-001   3.132522e-002   4.713845e-004
   295.44   7.223597e+001   8.228037e-002   2.328303e-004   5.797161e-001   3.148312e-002   4.737606e-004
   295.45   7.210701e+001   8.201284e-002   2.294962e-004   5.819483e-001   3.160435e-002   4.755848e-004
   295.46   7.198083e+001   8.175585e-002   2.258694e-004   5.834830e-001   3.168769e-002   4.768390e-004
   295.47   7.185663e+001   8.151408e-002   2.220034e-004   5.843198e-001   3.173314e-002   4.775228e-004
   295.48   7.173482e+001   8.130093e-002   2.180958e-004   5.845144e-001   3.174370e-002   4.776818e-004
   295.49   7.161565e+001   8.112478e-002   2.142828e-004   5.841279e-001   3.172271e-002   4.773659e-004
   295.50   7.149833e+001   8.099018e-002   2.107193e-004   5.832075e-001   3.167273e-002   4.766138e-004
   295.51   7.138312e+001   8.090499e-002   2.076478e-004   5.818207e-001   3.159742e-002   4.754805e-004
   295.52   7.127028e+001   8.086994e-002   2.052304e-004   5.800417e-001   3.150080e-002   4.740266e-004
   295.53   7.115905e+001   8.089328e-002   2.037363e-004   5.779015e-001   3.138458e-002   4.722776e-004
   295.54   7.104960e+001   8.097245e-002   2.033083e-004   5.754626e-001   3.125212e-002   4.702845e-004
   295.55   7.094225e+001   8.110861e-002   2.040716e-004   5.727844e-001   3.110667e-002   4.680957e-004
   295.56   7.083629e+001   8.129746e-002   2.060052e-004   5.699052e-001   3.095031e-002   4.657428e-004
   295.57   7.073202e+001   8.153422e-002   2.090657e-004   5.668913e-001   3.078663e-002   4.632797e-004
   295.58   7.062975e+001   8.180731e-002   2.130614e-004   5.638108e-001   3.061934e-002   4.607623e-004
   295.59   7.052891e+001   8.211345e-002   2.178682e-004   5.606918e-001   3.044995e-002   4.582133e-004
   295.60   7.042982e+001   8.243590e-002   2.231996e-004   5.575760e-001   3.028074e-002   4.556671e-004
   295.61   7.033282e+001   8.276941e-002   2.288857e-004   5.544974e-001   3.011355e-002   4.531511e-004
   295.62   7.023734e+001   8.310007e-002   2.346709e-004   5.514518e-001   2.994815e-002   4.506621e-004
   295.63   7.014371e+001   8.341343e-002   2.402776e-004   5.484680e-001   2.978611e-002   4.482237e-004
   295.64   7.005201e+001   8.370149e-002   2.455275e-004   5.455133e-001   2.962564e-002   4.458091e-004
   295.65   6.996242e+001   8.394975e-002   2.501735e-004   5.426143e-001   2.946820e-002   4.434399e-004
   295.66   6.987452e+001   8.415030e-002   2.540650e-004   5.397286e-001   2.931149e-002   4.410816e-004
   295.67   6.978844e+001   8.429192e-002   2.570342e-004   5.368708e-001   2.915628e-002   4.387461e-004
   295.68   6.970447e+001   8.436670e-002   2.589842e-004   5.340500e-001   2.900309e-002   4.364409e-004
   295.69   6.962206e+001   8.436724e-002   2.598413e-004   5.312066e-001   2.884867e-002   4.341172e-004
   295.70   6.954137e+001   8.429136e-002   2.596613e-004   5.283650e-001   2.869435e-002   4.317950e-004
   295.71   6.946251e+001   8.413528e-002   2.584580e-004   5.255155e-001   2.853960e-002   4.294663e-004
   295.72   6.938488e+001   8.389924e-002   2.563005e-004   5.226248e-001   2.838261e-002   4.271039e-004
   295.73   6.930865e+001   8.358116e-002   2.531628e-004   5.197369e-001   2.822578e-002   4.247438e-004
   295.74   6.923396e+001   8.318538e-002   2.490507e-004   5.168891e-001   2.807112e-002   4.224165e-004
   295.75   6.916030e+001   8.271355e-002   2.438525e-004   5.140678e-001   2.791791e-002   4.201109e-004
   295.76   6.908779e+001   8.217023e-002   2.374319e-004   5.113341e-001   2.776944e-002   4.178768e-004
   295.77   6.901661e+001   8.156034e-002   2.296113e-004   5.086961e-001   2.762618e-002   4.157210e-004
   295.78   6.894627e+001   8.088984e-002   2.202780e-004   5.061385e-001   2.748728e-002   4.136308e-004
   295.79   6.887683e+001   8.017221e-002   2.094867e-004   5.036306e-001   2.735108e-002   4.115813e-004
   295.80   6.880835e+001   7.941583e-002   1.973546e-004   5.011760e-001   2.721778e-002   4.095753e-004
   295.81   6.874011e+001   7.863256e-002   1.842066e-004   4.987044e-001   2.708355e-002   4.075555e-004
   295.82   6.867205e+001   7.784131e-002   1.706398e-004   4.961295e-001   2.694371e-002   4.054512e-004
   295.83   6.860391e+001   7.705833e-002   1.573620e-004   4.933986e-001   2.679540e-002   4.032194e-004
   295.84   6.853500e+001   7.629940e-002   1.450399e-004   4.903429e-001   2.662945e-002   4.007222e-004
   295.85   6.846501e+001   7.558081e-002   1.344261e-004   4.867966e-001   2.643686e-002   3.978241e-004
   295.86   6.839390e+001   7.492133e-002   1.261047e-004   4.826718e-001   2.621286e-002   3.944532e-004
   295.87   6.832093e+001   7.432568e-002   1.202766e-004   4.778993e-001   2.595367e-002   3.905529e-004
   295.88   6.824621e+001   7.380420e-002   1.169669e-004   4.725676e-001   2.566412e-002   3.861958e-004
   295.89   6.816971e+001   7.336436e-002   1.159165e-004   4.668257e-001   2.535229e-002   3.815033e-004
   295.90   6.809169e+001   7.300228e-002   1.165213e-004   4.608899e-001   2.502993e-002   3.766523e-004
   295.91   6.801180e+001   7.271887e-002   1.181955e-004   4.548680e-001   2.470289e-002   3.717311e-004
   295.92   6.793038e+001   7.250882e-002   1.202508e-004   4.489019e-001   2.437889e-002   3.668554e-004
   295.93   6.784769e+001   7.237166e-002   1.222004e-004   4.430829e-001   2.406287e-002   3.621000e-004
   295.94   6.776316e+001   7.229769e-002   1.237028e-004   4.374484e-001   2.375687e-002   3.574954e-004
   295.95   6.767703e+001   7.228992e-002   1.247530e-004   4.321509e-001   2.346917e-002   3.531660e-004
   295.96   6.758925e+001   7.234076e-002   1.255623e-004   4.273197e-001   2.320680e-002   3.492178e-004
   295.97   6.749913e+001   7.245059e-002   1.265115e-004   4.229848e-001   2.297138e-002   3.456753e-004
   295.98   6.740660e+001   7.261640e-002   1.280938e-004   4.191301e-001   2.276205e-002   3.425251e-004
   295.99   6.731167e+001   7.283413e-002   1.307367e-004   4.156317e-001   2.257205e-002   3.396661e-004
   296.00   6.721368e+001   7.309666e-002   1.346656e-004   4.122240e-001   2.238699e-002   3.368812e-004
   296.01   6.711272e+001   7.339537e-002   1.399451e-004   4.087726e-001   2.219955e-002   3.340606e-004
   296.02   6.700923e+001   7.371678e-002   1.462785e-004   4.052121e-001   2.200619e-002   3.311509e-004
   296.03   6.690260e+001   7.405177e-002   1.533143e-004   4.015653e-001   2.180814e-002   3.281707e-004
   296.04   6.679342e+001   7.438306e-002   1.604019e-004   3.979953e-001   2.161426e-002   3.252532e-004
   296.05   6.668221e+001   7.469495e-002   1.668797e-004   3.947724e-001   2.143923e-002   3.226193e-004
   296.06   6.656853e+001   7.497626e-002   1.722311e-004   3.920485e-001   2.129130e-002   3.203932e-004
   296.07   6.645297e+001   7.521614e-002   1.760595e-004   3.900082e-001   2.118050e-002   3.187258e-004
   296.08   6.633594e+001   7.540676e-002   1.781707e-004   3.887069e-001   2.110983e-002   3.176624e-004
   296.09   6.621685e+001   7.553994e-002   1.785779e-004   3.881133e-001   2.107759e-002   3.171772e-004
   296.10   6.609615e+001   7.561555e-002   1.775184e-004   3.881027e-001   2.107701e-002   3.171686e-004
   296.11   6.597420e+001   7.562725e-002   1.752403e-004   3.884793e-001   2.109747e-002   3.174764e-004
   296.12   6.585032e+001   7.558171e-002   1.721805e-004   3.890238e-001   2.112704e-002   3.179214e-004
   296.13   6.572505e+001   7.547496e-002   1.685707e-004   3.895429e-001   2.115523e-002   3.183456e-004
   296.14   6.559845e+001   7.531265e-002   1.646952e-004   3.899257e-001   2.117601e-002   3.186584e-004
   296.15   6.547122e+001   7.509390e-002   1.605846e-004   3.901936e-001   2.119057e-002   3.188774e-004
   296.16   6.534288e+001   7.482341e-002   1.561991e-004   3.904350e-001   2.120368e-002   3.190747e-004
   296.17   6.521416e+001   7.449834e-002   1.513183e-004   3.908101e-001   2.122404e-002   3.193811e-004
   296.18   6.508585e+001   7.412310e-002   1.457164e-004   3.914671e-001   2.125973e-002   3.199181e-004
   296.19   6.495765e+001   7.369772e-002   1.390623e-004   3.924897e-001   2.131526e-002   3.207538e-004
   296.20   6.483035e+001   7.322372e-002   1.310869e-004   3.938946e-001   2.139156e-002   3.219019e-004
   296.21   6.470480e+001   7.270933e-002   1.216304e-004   3.955982e-001   2.148408e-002   3.232941e-004
   296.22   6.458059e+001   7.215560e-002   1.105328e-004   3.974829e-001   2.158643e-002   3.248344e-004
   296.23   6.445847e+001   7.156763e-002   9.782364e-005   3.993782e-001   2.168936e-002   3.263833e-004
   296.24   6.433897e+001   7.097122e-002   8.377311e-005   4.009798e-001   2.177634e-002   3.276922e-004
   296.25   6.422435e+001   7.021541e-002   6.463182e-005   4.021396e-001   2.183932e-002   3.286399e-004
   296.26   6.411160e+001   6.912891e-002   4.640757e-005   4.085352e-001   2.218666e-002   3.338666e-004
   296.27   6.399265e+001   6.945675e-002   4.105672e-005   4.018652e-001   2.182443e-002   3.284157e-004
   296.28   6.388477e+001   6.843785e-002   2.425067e-005   4.076884e-001   2.214067e-002   3.331746e-004
   296.29   6.377779e+001   6.812336e-002   1.087598e-005   4.038700e-001   2.193330e-002   3.300541e-004
   296.30   6.366577e+001   6.871789e-002   1.084659e-005   3.942760e-001   2.141227e-002   3.222136e-004
   296.31   6.356444e+001   6.811561e-002   1.413172e-006   3.955477e-001   2.148134e-002   3.232529e-004
   296.32   6.346667e+001   6.737739e-002  -6.628459e-006   3.996313e-001   2.170311e-002   3.265901e-004
   296.33   6.337688e+001   6.604128e-002  -1.909323e-005   4.107023e-001   2.230435e-002   3.356377e-004
   296.34   6.328489e+001   6.560292e-002  -2.274622e-005   4.126955e-001   2.241259e-002   3.372665e-004
   296.35   6.320112e+001   6.491547e-002  -3.206489e-005   4.119443e-001   2.237180e-002   3.366526e-004
   296.36   6.313125e+001   6.333405e-002  -5.502603e-005   4.133607e-001   2.244872e-002   3.378102e-004
   296.37   6.305638e+001   6.259646e-002  -6.524537e-005   4.128410e-001   2.242050e-002   3.373855e-004
   296.38   6.298885e+001   6.134162e-002  -8.013621e-005   4.192057e-001   2.276615e-002   3.425869e-004
   296.39   6.293085e+001   5.959195e-002  -1.032023e-004   4.274846e-001   2.321576e-002   3.493526e-004
   296.40   6.287436e+001   5.842108e-002  -1.230383e-004   4.268457e-001   2.318106e-002   3.488305e-004
   296.41   6.280862e+001   5.854791e-002  -1.245971e-004   4.187423e-001   2.274098e-002   3.422082e-004
   296.42   6.274950e+001   5.824421e-002  -1.302949e-004   4.154768e-001   2.256364e-002   3.395395e-004
   296.43   6.268602e+001   5.938738e-002  -1.250113e-004   3.924380e-001   2.131245e-002   3.207115e-004
   296.44   6.261807e+001   6.035639e-002  -1.078418e-004   3.863127e-001   2.097980e-002   3.157058e-004
   296.45   6.256695e+001   6.076065e-002  -1.110890e-004   3.702010e-001   2.010481e-002   3.025388e-004
   296.46   6.252188e+001   6.031392e-002  -1.181519e-004   3.677792e-001   1.997329e-002   3.005597e-004
   296.47   6.247360e+001   6.007514e-002  -1.167638e-004   3.682518e-001   1.999895e-002   3.009459e-004
   296.48   6.242327e+001   6.066775e-002  -1.097417e-004   3.600446e-001   1.955324e-002   2.942387e-004
   296.49   6.238076e+001   6.052161e-002  -1.108916e-004   3.585243e-001   1.947068e-002   2.929963e-004
   296.50   6.234115e+001   6.056479e-002  -1.143995e-004   3.548939e-001   1.927352e-002   2.900295e-004
   296.51   6.229688e+001   6.083381e-002  -1.089102e-004   3.522680e-001   1.913091e-002   2.878835e-004
   296.52   6.225973e+001   6.024699e-002  -1.114225e-004   3.567069e-001   1.937197e-002   2.915110e-004
   296.53   6.223210e+001   5.863033e-002  -1.260372e-004   3.701156e-001   2.010017e-002   3.024690e-004
   296.54   6.219223e+001   5.814738e-002  -1.213252e-004   3.793427e-001   2.060128e-002   3.100097e-004
   296.55   6.215134e+001   5.797201e-002  -1.138455e-004   3.871455e-001   2.102503e-002   3.163864e-004
   296.56   6.211495e+001   5.718202e-002  -1.114456e-004   4.036557e-001   2.192166e-002   3.298789e-004
   296.57   6.207183e+001   5.755076e-002  -9.895743e-005   4.053916e-001   2.201594e-002   3.312976e-004
   296.58   6.203069e+001   5.777341e-002  -8.843655e-005   4.073735e-001   2.212357e-002   3.329172e-004
   296.59   6.200417e+001   5.649936e-002  -9.885263e-005   4.167165e-001   2.263097e-002   3.405526e-004
   296.60   6.197288e+001   5.569889e-002  -1.025588e-004   4.240582e-001   2.302968e-002   3.465525e-004
   296.61   6.194296e+001   5.483117e-002  -1.086468e-004   4.306400e-001   2.338712e-002   3.519313e-004
   296.62   6.189705e+001   5.576132e-002  -9.314837e-005   4.218229e-001   2.290829e-002   3.447257e-004
   296.63   6.185579e+001   5.667302e-002  -8.584336e-005   4.040628e-001   2.194377e-002   3.302116e-004
   296.64   6.182149e+001   5.695792e-002  -8.995434e-005   3.907677e-001   2.122174e-002   3.193465e-004
   296.65   6.179239e+001   5.633000e-002  -1.022561e-004   3.907699e-001   2.122186e-002   3.193483e-004
   296.66   6.176085e+001   5.593660e-002  -1.125606e-004   3.903810e-001   2.120074e-002   3.190305e-004
   296.67   6.172261e+001   5.554591e-002  -1.138625e-004   3.918627e-001   2.128121e-002   3.202414e-004
   296.68   6.167547e+001   5.594096e-002  -1.034668e-004   3.858430e-001   2.095429e-002   3.153219e-004
   296.69   6.163353e+001   5.571651e-002  -1.019980e-004   3.843507e-001   2.087325e-002   3.141024e-004
   296.70   6.158613e+001   5.563505e-002  -9.392981e-005   3.817025e-001   2.072943e-002   3.119382e-004
   296.71   6.152470e+001   5.657925e-002  -6.712489e-005   3.729681e-001   2.025508e-002   3.048001e-004
   296.72   6.145945e+001   5.827980e-002  -3.791587e-005   3.557991e-001   1.932267e-002   2.907692e-004
   296.73   6.140447e+001   5.847123e-002  -2.592340e-005   3.512900e-001   1.907780e-002   2.870842e-004
   296.74   6.133697e+001   5.968966e-002   9.719475e-007   3.439975e-001   1.868176e-002   2.811246e-004
   296.75   6.128651e+001   5.903197e-002  -6.654824e-007   3.436389e-001   1.866228e-002   2.808315e-004
   296.76   6.122023e+001   5.981924e-002   1.629556e-005   3.386137e-001   1.838937e-002   2.767247e-004
   296.77   6.116739e+001   5.832113e-002   1.049135e-005   3.559916e-001   1.933313e-002   2.909265e-004
   296.78   6.111573e+001   5.737990e-002  -2.523302e-006   3.515350e-001   1.909110e-002   2.872844e-004
   296.79   6.105555e+001   5.686363e-002  -7.513931e-006   3.512895e-001   1.907777e-002   2.870838e-004
   296.80   6.100306e+001   5.523474e-002  -2.738117e-005   3.559954e-001   1.933334e-002   2.909296e-004
   296.81   6.092766e+001   5.573271e-002  -1.878956e-005   3.533449e-001   1.918939e-002   2.887636e-004
   296.82   6.086158e+001   5.506382e-002  -2.735889e-005   3.508795e-001   1.905550e-002   2.867488e-004
   296.83   6.080515e+001   5.282348e-002  -5.273868e-005   3.596779e-001   1.953333e-002   2.939391e-004
